Refractive index of gold at +33K
lambda [um]	n	k
0.55043	0.33859	2.48304
0.55212	0.33036	2.51071
0.55381	0.32254	2.53800
0.55550	0.31512	2.56490
0.55719	0.30807	2.59143
0.55888	0.30136	2.61761
0.56057	0.29498	2.64344
0.56225	0.28890	2.66893
0.56394	0.28311	2.69411
0.56563	0.27758	2.71897
0.56732	0.27231	2.74354
0.56901	0.26728	2.76781
0.57070	0.26247	2.79181
0.57239	0.25787	2.81553
0.57408	0.25347	2.83899
0.57577	0.24927	2.86220
0.57746	0.24524	2.88517
0.57915	0.24138	2.90789
0.58084	0.23768	2.93039
0.58253	0.23414	2.95267
0.58422	0.23074	2.97474
0.58591	0.22748	2.99660
0.58760	0.22435	3.01826
0.58929	0.22135	3.03972
0.59098	0.21846	3.06100
0.59267	0.21569	3.08209
0.59436	0.21302	3.10301
0.59605	0.21046	3.12376
0.59774	0.20799	3.14434
0.59943	0.20562	3.16476
0.60112	0.20334	3.18503
0.60281	0.20115	3.20514
0.60450	0.19904	3.22511
0.60619	0.19700	3.24493
0.60788	0.19504	3.26462
0.60957	0.19315	3.28417
0.61126	0.19134	3.30359
0.61295	0.18958	3.32288
0.61464	0.18790	3.34205
0.61633	0.18627	3.36110
0.61801	0.18470	3.38003
0.61970	0.18319	3.39884
0.62139	0.18173	3.41755
0.62308	0.18033	3.43615
0.62477	0.17897	3.45464
0.62646	0.17767	3.47303
0.62815	0.17641	3.49132
0.62984	0.17519	3.50952
0.63153	0.17402	3.52762
0.63322	0.17289	3.54562
0.63491	0.17180	3.56354
0.63660	0.17075	3.58137
0.63829	0.16974	3.59911
0.63998	0.16876	3.61677
0.64167	0.16782	3.63435
0.64336	0.16691	3.65185
0.64505	0.16604	3.66927
0.64674	0.16520	3.68661
0.64843	0.16438	3.70388
0.65012	0.16360	3.72108
0.65181	0.16285	3.73821
0.65350	0.16212	3.75526
0.65519	0.16142	3.77225
0.65688	0.16075	3.78918
0.65857	0.16010	3.80603
0.66026	0.15948	3.82283
0.66195	0.15888	3.83956
0.66364	0.15831	3.85624
0.66533	0.15775	3.87285
0.66702	0.15722	3.88940
0.66871	0.15671	3.90590
0.67040	0.15622	3.92234
0.67209	0.15576	3.93873
0.67378	0.15531	3.95507
0.67546	0.15487	3.97135
0.67715	0.15446	3.98758
0.67884	0.15407	4.00376
0.68053	0.15369	4.01989
0.68222	0.15333	4.03598
0.68391	0.15299	4.05201
0.68560	0.15266	4.06800
0.68729	0.15235	4.08394
0.68898	0.15205	4.09984
0.69067	0.15177	4.11570
0.69236	0.15150	4.13151
0.69405	0.15125	4.14728
0.69574	0.15101	4.16301
0.69743	0.15079	4.17870
0.69912	0.15057	4.19435
0.70081	0.15037	4.20996
0.70250	0.15019	4.22553
0.70419	0.15001	4.24106
0.70588	0.14985	4.25656
0.70757	0.14970	4.27201
0.70926	0.14956	4.28744
0.71095	0.14943	4.30283
0.71264	0.14931	4.31818
0.71433	0.14921	4.33350
0.71602	0.14911	4.34879
0.71771	0.14902	4.36404
0.71940	0.14895	4.37926
0.72109	0.14888	4.39445
0.72278	0.14882	4.40961
0.72447	0.14877	4.42474
0.72616	0.14874	4.43984
0.72785	0.14871	4.45490
0.72954	0.14868	4.46994
0.73122	0.14867	4.48495
0.73291	0.14867	4.49994
0.73460	0.14867	4.51489
0.73629	0.14868	4.52982
0.73798	0.14870	4.54472
0.73967	0.14873	4.55959
0.74136	0.14877	4.57444
0.74305	0.14881	4.58926
0.74474	0.14886	4.60405
0.74643	0.14892	4.61882
0.74812	0.14898	4.63357
0.74981	0.14906	4.64829
0.75150	0.14913	4.66299
0.75319	0.14922	4.67767
0.75488	0.14931	4.69232
0.75657	0.14941	4.70695
0.75826	0.14951	4.72155
0.75995	0.14962	4.73614
0.76164	0.14974	4.75070
0.76333	0.14986	4.76524
0.76502	0.14999	4.77976
0.76671	0.15013	4.79426
0.76840	0.15027	4.80874
0.77009	0.15041	4.82320
0.77178	0.15056	4.83764
0.77347	0.15072	4.85205
0.77516	0.15088	4.86645
0.77685	0.15105	4.88083
0.77854	0.15122	4.89519
0.78023	0.15140	4.90953
0.78192	0.15158	4.92386
0.78361	0.15177	4.93816
0.78530	0.15196	4.95245
0.78699	0.15216	4.96672
0.78867	0.15236	4.98097
0.79036	0.15257	4.99521
0.79205	0.15278	5.00942
0.79374	0.15299	5.02363
0.79543	0.15321	5.03781
0.79712	0.15344	5.05198
0.79881	0.15367	5.06613
0.80050	0.15390	5.08026
0.80219	0.15414	5.09438
0.80388	0.15438	5.10849
0.80557	0.15462	5.12258
0.80726	0.15487	5.13665
0.80895	0.15513	5.15071
0.81064	0.15538	5.16475
0.81233	0.15565	5.17878
0.81402	0.15591	5.19280
0.81571	0.15618	5.20680
0.81740	0.15645	5.22079
0.81909	0.15673	5.23476
0.82078	0.15701	5.24872
0.82247	0.15729	5.26266
0.82416	0.15758	5.27659
0.82585	0.15787	5.29051
0.82754	0.15816	5.30442
0.82923	0.15846	5.31831
0.83092	0.15876	5.33219
0.83261	0.15906	5.34606
0.83430	0.15937	5.35991
0.83599	0.15968	5.37375
0.83768	0.16000	5.38758
0.83937	0.16031	5.40140
0.84106	0.16063	5.41520
0.84275	0.16096	5.42900
0.84443	0.16128	5.44278
0.84612	0.16161	5.45655
0.84781	0.16194	5.47031
0.84950	0.16228	5.48405
0.85119	0.16262	5.49779
0.85288	0.16296	5.51152
0.85457	0.16330	5.52523
0.85626	0.16365	5.53893
0.85795	0.16400	5.55262
0.85964	0.16435	5.56631
0.86133	0.16471	5.57998
0.86302	0.16507	5.59364
0.86471	0.16543	5.60729
0.86640	0.16579	5.62093
0.86809	0.16616	5.63456
0.86978	0.16653	5.64818
0.87147	0.16690	5.66179
0.87316	0.16727	5.67539
0.87485	0.16765	5.68898
0.87654	0.16803	5.70256
0.87823	0.16841	5.71613
0.87992	0.16879	5.72970
0.88161	0.16918	5.74325
0.88330	0.16957	5.75679
0.88499	0.16996	5.77033
0.88668	0.17036	5.78386
0.88837	0.17075	5.79737
0.89006	0.17115	5.81088
0.89175	0.17155	5.82438
0.89344	0.17196	5.83787
0.89513	0.17236	5.85135
0.89682	0.17277	5.86483
0.89851	0.17318	5.87829
0.90020	0.17359	5.89175
0.90188	0.17401	5.90520
0.90357	0.17443	5.91864
0.90526	0.17485	5.93207
0.90695	0.17527	5.94549
0.90864	0.17569	5.95891
0.91033	0.17612	5.97232
0.91202	0.17654	5.98572
0.91371	0.17697	5.99911
0.91540	0.17741	6.01250
0.91709	0.17784	6.02587
0.91878	0.17828	6.03924
0.92047	0.17872	6.05261
0.92216	0.17916	6.06596
0.92385	0.17960	6.07931
0.92554	0.18004	6.09265
0.92723	0.18049	6.10598
0.92892	0.18094	6.11931
0.93061	0.18139	6.13263
0.93230	0.18184	6.14594
0.93399	0.18230	6.15925
0.93568	0.18276	6.17255
0.93737	0.18321	6.18584
0.93906	0.18367	6.19912
0.94075	0.18414	6.21240
0.94244	0.18460	6.22567
0.94413	0.18507	6.23894
0.94582	0.18554	6.25220
0.94751	0.18601	6.26545
0.94920	0.18648	6.27869
0.95089	0.18695	6.29193
0.95258	0.18743	6.30517
0.95427	0.18790	6.31839
0.95596	0.18838	6.33161
0.95764	0.18886	6.34483
0.95933	0.18935	6.35804
0.96102	0.18983	6.37124
0.96271	0.19032	6.38443
0.96440	0.19081	6.39762
0.96609	0.19130	6.41081
0.96778	0.19179	6.42399
0.96947	0.19228	6.43716
0.97116	0.19277	6.45033
0.97285	0.19327	6.46349
0.97454	0.19377	6.47664
0.97623	0.19427	6.48979
0.97792	0.19477	6.50294
0.97961	0.19528	6.51608
0.98130	0.19578	6.52921
0.98299	0.19629	6.54234
0.98468	0.19680	6.55546
0.98637	0.19731	6.56858
0.98806	0.19782	6.58169
0.98975	0.19833	6.59480
0.99144	0.19885	6.60790
0.99313	0.19936	6.62099
0.99482	0.19988	6.63409
0.99651	0.20040	6.64717
0.99820	0.20092	6.66025
0.99989	0.20145	6.67333
1.00158	0.20197	6.68640
1.00327	0.20250	6.69947
1.00496	0.20303	6.71253
1.00665	0.20356	6.72558
1.00834	0.20409	6.73863
1.01003	0.20462	6.75168
1.01172	0.20515	6.76472
1.01341	0.20569	6.77776
1.01509	0.20623	6.79079
1.01678	0.20677	6.80382
1.01847	0.20731	6.81684
1.02016	0.20785	6.82986
1.02185	0.20839	6.84287
1.02354	0.20894	6.85588
1.02523	0.20948	6.86889
1.02692	0.21003	6.88189
1.02861	0.21058	6.89488
1.03030	0.21113	6.90788
1.03199	0.21168	6.92086
1.03368	0.21224	6.93385
1.03537	0.21279	6.94682
1.03706	0.21335	6.95980
1.03875	0.21391	6.97277
1.04044	0.21447	6.98573
1.04213	0.21503	6.99870
1.04382	0.21559	7.01165
1.04551	0.21616	7.02461
1.04720	0.21672	7.03756
