Refractive index of gold at +41K
lambda [um]	n	k
0.55043	0.33946	2.48240
0.55212	0.33125	2.51010
0.55381	0.32346	2.53741
0.55550	0.31607	2.56433
0.55719	0.30904	2.59088
0.55888	0.30236	2.61708
0.56057	0.29600	2.64293
0.56225	0.28994	2.66845
0.56394	0.28416	2.69364
0.56563	0.27865	2.71853
0.56732	0.27339	2.74311
0.56901	0.26837	2.76740
0.57070	0.26358	2.79142
0.57239	0.25899	2.81516
0.57408	0.25460	2.83864
0.57577	0.25041	2.86187
0.57746	0.24639	2.88485
0.57915	0.24254	2.90760
0.58084	0.23885	2.93012
0.58253	0.23531	2.95242
0.58422	0.23192	2.97450
0.58591	0.22866	2.99638
0.58760	0.22554	3.01806
0.58929	0.22254	3.03954
0.59098	0.21965	3.06083
0.59267	0.21688	3.08194
0.59436	0.21422	3.10288
0.59605	0.21166	3.12364
0.59774	0.20920	3.14424
0.59943	0.20683	3.16468
0.60112	0.20455	3.18496
0.60281	0.20236	3.20509
0.60450	0.20025	3.22507
0.60619	0.19822	3.24491
0.60788	0.19626	3.26461
0.60957	0.19437	3.28418
0.61126	0.19256	3.30361
0.61295	0.19081	3.32292
0.61464	0.18912	3.34211
0.61633	0.18749	3.36117
0.61801	0.18592	3.38011
0.61970	0.18441	3.39895
0.62139	0.18296	3.41767
0.62308	0.18155	3.43628
0.62477	0.18020	3.45478
0.62646	0.17889	3.47319
0.62815	0.17763	3.49149
0.62984	0.17642	3.50970
0.63153	0.17525	3.52781
0.63322	0.17412	3.54583
0.63491	0.17303	3.56376
0.63660	0.17198	3.58160
0.63829	0.17097	3.59936
0.63998	0.16999	3.61703
0.64167	0.16905	3.63462
0.64336	0.16814	3.65213
0.64505	0.16727	3.66956
0.64674	0.16643	3.68692
0.64843	0.16561	3.70420
0.65012	0.16483	3.72141
0.65181	0.16408	3.73855
0.65350	0.16335	3.75561
0.65519	0.16265	3.77262
0.65688	0.16198	3.78955
0.65857	0.16133	3.80642
0.66026	0.16071	3.82322
0.66195	0.16011	3.83997
0.66364	0.15954	3.85665
0.66533	0.15899	3.87327
0.66702	0.15846	3.88984
0.66871	0.15795	3.90635
0.67040	0.15746	3.92280
0.67209	0.15699	3.93920
0.67378	0.15654	3.95554
0.67546	0.15611	3.97183
0.67715	0.15570	3.98807
0.67884	0.15530	4.00426
0.68053	0.15493	4.02040
0.68222	0.15457	4.03649
0.68391	0.15423	4.05254
0.68560	0.15390	4.06854
0.68729	0.15359	4.08449
0.68898	0.15329	4.10039
0.69067	0.15301	4.11626
0.69236	0.15275	4.13208
0.69405	0.15249	4.14786
0.69574	0.15226	4.16359
0.69743	0.15203	4.17929
0.69912	0.15182	4.19495
0.70081	0.15162	4.21056
0.70250	0.15144	4.22614
0.70419	0.15126	4.24168
0.70588	0.15110	4.25718
0.70757	0.15095	4.27265
0.70926	0.15081	4.28808
0.71095	0.15069	4.30348
0.71264	0.15057	4.31884
0.71433	0.15046	4.33416
0.71602	0.15037	4.34946
0.71771	0.15028	4.36472
0.71940	0.15021	4.37995
0.72109	0.15014	4.39514
0.72278	0.15009	4.41031
0.72447	0.15004	4.42544
0.72616	0.15000	4.44054
0.72785	0.14997	4.45562
0.72954	0.14996	4.47066
0.73122	0.14994	4.48568
0.73291	0.14994	4.50067
0.73460	0.14995	4.51563
0.73629	0.14996	4.53056
0.73798	0.14998	4.54546
0.73967	0.15001	4.56034
0.74136	0.15005	4.57520
0.74305	0.15010	4.59002
0.74474	0.15015	4.60482
0.74643	0.15021	4.61960
0.74812	0.15027	4.63435
0.74981	0.15035	4.64908
0.75150	0.15043	4.66378
0.75319	0.15052	4.67846
0.75488	0.15061	4.69312
0.75657	0.15071	4.70775
0.75826	0.15082	4.72236
0.75995	0.15093	4.73695
0.76164	0.15105	4.75152
0.76333	0.15117	4.76607
0.76502	0.15130	4.78059
0.76671	0.15144	4.79510
0.76840	0.15158	4.80958
0.77009	0.15173	4.82404
0.77178	0.15188	4.83848
0.77347	0.15204	4.85291
0.77516	0.15221	4.86731
0.77685	0.15238	4.88169
0.77854	0.15255	4.89606
0.78023	0.15273	4.91040
0.78192	0.15292	4.92473
0.78361	0.15311	4.93904
0.78530	0.15330	4.95333
0.78699	0.15350	4.96760
0.78867	0.15371	4.98186
0.79036	0.15392	4.99610
0.79205	0.15413	5.01032
0.79374	0.15435	5.02452
0.79543	0.15457	5.03871
0.79712	0.15480	5.05288
0.79881	0.15503	5.06704
0.80050	0.15526	5.08118
0.80219	0.15550	5.09530
0.80388	0.15575	5.10941
0.80557	0.15600	5.12350
0.80726	0.15625	5.13758
0.80895	0.15651	5.15164
0.81064	0.15677	5.16569
0.81233	0.15703	5.17972
0.81402	0.15730	5.19374
0.81571	0.15757	5.20774
0.81740	0.15785	5.22173
0.81909	0.15812	5.23571
0.82078	0.15841	5.24967
0.82247	0.15869	5.26362
0.82416	0.15898	5.27755
0.82585	0.15928	5.29147
0.82754	0.15957	5.30538
0.82923	0.15988	5.31928
0.83092	0.16018	5.33316
0.83261	0.16049	5.34703
0.83430	0.16080	5.36089
0.83599	0.16111	5.37473
0.83768	0.16143	5.38856
0.83937	0.16175	5.40238
0.84106	0.16207	5.41619
0.84275	0.16240	5.42999
0.84443	0.16273	5.44377
0.84612	0.16306	5.45754
0.84781	0.16340	5.47130
0.84950	0.16374	5.48505
0.85119	0.16408	5.49879
0.85288	0.16442	5.51252
0.85457	0.16477	5.52624
0.85626	0.16512	5.53994
0.85795	0.16547	5.55364
0.85964	0.16583	5.56732
0.86133	0.16619	5.58099
0.86302	0.16655	5.59466
0.86471	0.16691	5.60831
0.86640	0.16728	5.62195
0.86809	0.16765	5.63559
0.86978	0.16802	5.64921
0.87147	0.16840	5.66282
0.87316	0.16878	5.67642
0.87485	0.16916	5.69002
0.87654	0.16954	5.70360
0.87823	0.16993	5.71717
0.87992	0.17031	5.73074
0.88161	0.17070	5.74429
0.88330	0.17110	5.75784
0.88499	0.17149	5.77138
0.88668	0.17189	5.78490
0.88837	0.17229	5.79842
0.89006	0.17269	5.81193
0.89175	0.17310	5.82543
0.89344	0.17351	5.83893
0.89513	0.17392	5.85241
0.89682	0.17433	5.86589
0.89851	0.17474	5.87935
0.90020	0.17516	5.89281
0.90188	0.17558	5.90626
0.90357	0.17600	5.91970
0.90526	0.17642	5.93314
0.90695	0.17685	5.94656
0.90864	0.17728	5.95998
0.91033	0.17771	5.97339
0.91202	0.17814	5.98679
0.91371	0.17857	6.00019
0.91540	0.17901	6.01357
0.91709	0.17945	6.02695
0.91878	0.17989	6.04033
0.92047	0.18033	6.05369
0.92216	0.18078	6.06705
0.92385	0.18122	6.08040
0.92554	0.18167	6.09374
0.92723	0.18212	6.10707
0.92892	0.18258	6.12040
0.93061	0.18303	6.13372
0.93230	0.18349	6.14704
0.93399	0.18395	6.16034
0.93568	0.18441	6.17364
0.93737	0.18487	6.18694
0.93906	0.18534	6.20022
0.94075	0.18580	6.21350
0.94244	0.18627	6.22677
0.94413	0.18674	6.24004
0.94582	0.18721	6.25330
0.94751	0.18769	6.26655
0.94920	0.18816	6.27980
0.95089	0.18864	6.29304
0.95258	0.18912	6.30628
0.95427	0.18960	6.31950
0.95596	0.19009	6.33272
0.95764	0.19057	6.34594
0.95933	0.19106	6.35915
0.96102	0.19155	6.37235
0.96271	0.19204	6.38555
0.96440	0.19253	6.39874
0.96609	0.19303	6.41193
0.96778	0.19352	6.42511
0.96947	0.19402	6.43828
0.97116	0.19452	6.45145
0.97285	0.19502	6.46461
0.97454	0.19553	6.47777
0.97623	0.19603	6.49092
0.97792	0.19654	6.50406
0.97961	0.19704	6.51720
0.98130	0.19755	6.53034
0.98299	0.19807	6.54347
0.98468	0.19858	6.55659
0.98637	0.19909	6.56971
0.98806	0.19961	6.58282
0.98975	0.20013	6.59593
0.99144	0.20065	6.60903
0.99313	0.20117	6.62213
0.99482	0.20169	6.63522
0.99651	0.20222	6.64831
0.99820	0.20275	6.66139
0.99989	0.20327	6.67447
1.00158	0.20380	6.68754
1.00327	0.20433	6.70061
1.00496	0.20487	6.71367
1.00665	0.20540	6.72672
1.00834	0.20594	6.73978
1.01003	0.20648	6.75282
1.01172	0.20701	6.76587
1.01341	0.20756	6.77890
1.01509	0.20810	6.79194
1.01678	0.20864	6.80497
1.01847	0.20919	6.81799
1.02016	0.20973	6.83101
1.02185	0.21028	6.84402
1.02354	0.21083	6.85703
1.02523	0.21138	6.87004
1.02692	0.21194	6.88304
1.02861	0.21249	6.89604
1.03030	0.21305	6.90903
1.03199	0.21360	6.92202
1.03368	0.21416	6.93500
1.03537	0.21472	6.94798
1.03706	0.21529	6.96095
1.03875	0.21585	6.97392
1.04044	0.21641	6.98689
1.04213	0.21698	6.99985
1.04382	0.21755	7.01281
1.04551	0.21812	7.02577
1.04720	0.21869	7.03872
