Refractive index of gold at +55K
lambda [um]	n	k
0.55043	0.34477	2.48233
0.55212	0.33643	2.51008
0.55381	0.32852	2.53742
0.55550	0.32101	2.56439
0.55719	0.31387	2.59099
0.55888	0.30708	2.61723
0.56057	0.30062	2.64312
0.56225	0.29447	2.66869
0.56394	0.28860	2.69393
0.56563	0.28300	2.71886
0.56732	0.27766	2.74348
0.56901	0.27256	2.76782
0.57070	0.26769	2.79188
0.57239	0.26303	2.81566
0.57408	0.25858	2.83919
0.57577	0.25432	2.86246
0.57746	0.25023	2.88549
0.57915	0.24632	2.90827
0.58084	0.24258	2.93083
0.58253	0.23898	2.95317
0.58422	0.23554	2.97530
0.58591	0.23223	2.99721
0.58760	0.22906	3.01893
0.58929	0.22601	3.04045
0.59098	0.22308	3.06178
0.59267	0.22027	3.08293
0.59436	0.21757	3.10390
0.59605	0.21497	3.12470
0.59774	0.21247	3.14534
0.59943	0.21007	3.16581
0.60112	0.20775	3.18613
0.60281	0.20553	3.20629
0.60450	0.20338	3.22631
0.60619	0.20132	3.24618
0.60788	0.19933	3.26591
0.60957	0.19742	3.28551
0.61126	0.19557	3.30498
0.61295	0.19379	3.32431
0.61464	0.19208	3.34353
0.61633	0.19043	3.36262
0.61801	0.18884	3.38160
0.61970	0.18731	3.40046
0.62139	0.18583	3.41921
0.62308	0.18440	3.43785
0.62477	0.18303	3.45638
0.62646	0.18170	3.47482
0.62815	0.18042	3.49315
0.62984	0.17919	3.51138
0.63153	0.17800	3.52952
0.63322	0.17686	3.54757
0.63491	0.17575	3.56552
0.63660	0.17469	3.58339
0.63829	0.17366	3.60117
0.63998	0.17267	3.61887
0.64167	0.17171	3.63648
0.64336	0.17079	3.65402
0.64505	0.16991	3.67147
0.64674	0.16905	3.68885
0.64843	0.16823	3.70616
0.65012	0.16743	3.72339
0.65181	0.16667	3.74055
0.65350	0.16593	3.75764
0.65519	0.16523	3.77466
0.65688	0.16454	3.79162
0.65857	0.16389	3.80851
0.66026	0.16326	3.82534
0.66195	0.16265	3.84210
0.66364	0.16207	3.85880
0.66533	0.16151	3.87545
0.66702	0.16097	3.89203
0.66871	0.16045	3.90856
0.67040	0.15996	3.92503
0.67209	0.15948	3.94145
0.67378	0.15902	3.95782
0.67546	0.15859	3.97413
0.67715	0.15817	3.99039
0.67884	0.15777	4.00659
0.68053	0.15739	4.02275
0.68222	0.15703	4.03886
0.68391	0.15668	4.05493
0.68560	0.15635	4.07094
0.68729	0.15603	4.08691
0.68898	0.15573	4.10284
0.69067	0.15545	4.11872
0.69236	0.15518	4.13456
0.69405	0.15493	4.15036
0.69574	0.15469	4.16611
0.69743	0.15446	4.18182
0.69912	0.15424	4.19750
0.70081	0.15404	4.21313
0.70250	0.15386	4.22872
0.70419	0.15368	4.24428
0.70588	0.15352	4.25980
0.70757	0.15336	4.27528
0.70926	0.15322	4.29073
0.71095	0.15310	4.30614
0.71264	0.15298	4.32152
0.71433	0.15287	4.33686
0.71602	0.15278	4.35217
0.71771	0.15269	4.36745
0.71940	0.15261	4.38269
0.72109	0.15255	4.39790
0.72278	0.15249	4.41308
0.72447	0.15245	4.42823
0.72616	0.15241	4.44335
0.72785	0.15238	4.45844
0.72954	0.15236	4.47350
0.73122	0.15235	4.48853
0.73291	0.15235	4.50353
0.73460	0.15236	4.51850
0.73629	0.15237	4.53345
0.73798	0.15240	4.54837
0.73967	0.15243	4.56326
0.74136	0.15247	4.57813
0.74305	0.15251	4.59297
0.74474	0.15257	4.60779
0.74643	0.15263	4.62258
0.74812	0.15270	4.63734
0.74981	0.15277	4.65208
0.75150	0.15285	4.66680
0.75319	0.15294	4.68149
0.75488	0.15304	4.69616
0.75657	0.15314	4.71081
0.75826	0.15325	4.72543
0.75995	0.15336	4.74004
0.76164	0.15349	4.75462
0.76333	0.15361	4.76917
0.76502	0.15375	4.78371
0.76671	0.15389	4.79823
0.76840	0.15403	4.81272
0.77009	0.15418	4.82720
0.77178	0.15434	4.84165
0.77347	0.15450	4.85609
0.77516	0.15467	4.87050
0.77685	0.15484	4.88490
0.77854	0.15502	4.89928
0.78023	0.15520	4.91364
0.78192	0.15539	4.92798
0.78361	0.15559	4.94230
0.78530	0.15579	4.95660
0.78699	0.15599	4.97089
0.78867	0.15620	4.98515
0.79036	0.15641	4.99940
0.79205	0.15663	5.01364
0.79374	0.15685	5.02785
0.79543	0.15708	5.04205
0.79712	0.15731	5.05624
0.79881	0.15754	5.07040
0.80050	0.15778	5.08455
0.80219	0.15803	5.09869
0.80388	0.15828	5.11281
0.80557	0.15853	5.12691
0.80726	0.15879	5.14100
0.80895	0.15905	5.15507
0.81064	0.15931	5.16913
0.81233	0.15958	5.18317
0.81402	0.15986	5.19720
0.81571	0.16013	5.21122
0.81740	0.16041	5.22522
0.81909	0.16070	5.23921
0.82078	0.16098	5.25318
0.82247	0.16128	5.26714
0.82416	0.16157	5.28108
0.82585	0.16187	5.29502
0.82754	0.16217	5.30893
0.82923	0.16248	5.32284
0.83092	0.16279	5.33673
0.83261	0.16310	5.35061
0.83430	0.16342	5.36448
0.83599	0.16374	5.37833
0.83768	0.16406	5.39218
0.83937	0.16438	5.40601
0.84106	0.16471	5.41983
0.84275	0.16505	5.43363
0.84443	0.16538	5.44743
0.84612	0.16572	5.46121
0.84781	0.16606	5.47498
0.84950	0.16641	5.48874
0.85119	0.16675	5.50249
0.85288	0.16711	5.51623
0.85457	0.16746	5.52995
0.85626	0.16782	5.54367
0.85795	0.16817	5.55737
0.85964	0.16854	5.57107
0.86133	0.16890	5.58475
0.86302	0.16927	5.59842
0.86471	0.16964	5.61209
0.86640	0.17002	5.62574
0.86809	0.17039	5.63938
0.86978	0.17077	5.65301
0.87147	0.17115	5.66664
0.87316	0.17154	5.68025
0.87485	0.17192	5.69385
0.87654	0.17231	5.70744
0.87823	0.17271	5.72103
0.87992	0.17310	5.73460
0.88161	0.17350	5.74817
0.88330	0.17390	5.76172
0.88499	0.17430	5.77527
0.88668	0.17470	5.78881
0.88837	0.17511	5.80233
0.89006	0.17552	5.81585
0.89175	0.17593	5.82936
0.89344	0.17635	5.84287
0.89513	0.17676	5.85636
0.89682	0.17718	5.86984
0.89851	0.17760	5.88332
0.90020	0.17803	5.89679
0.90188	0.17845	5.91025
0.90357	0.17888	5.92370
0.90526	0.17931	5.93714
0.90695	0.17975	5.95058
0.90864	0.18018	5.96401
0.91033	0.18062	5.97742
0.91202	0.18106	5.99084
0.91371	0.18150	6.00424
0.91540	0.18194	6.01764
0.91709	0.18239	6.03102
0.91878	0.18284	6.04440
0.92047	0.18329	6.05778
0.92216	0.18374	6.07114
0.92385	0.18420	6.08450
0.92554	0.18465	6.09785
0.92723	0.18511	6.11120
0.92892	0.18557	6.12453
0.93061	0.18603	6.13786
0.93230	0.18650	6.15119
0.93399	0.18697	6.16450
0.93568	0.18743	6.17781
0.93737	0.18790	6.19111
0.93906	0.18838	6.20441
0.94075	0.18885	6.21770
0.94244	0.18933	6.23098
0.94413	0.18981	6.24425
0.94582	0.19029	6.25752
0.94751	0.19077	6.27078
0.94920	0.19125	6.28404
0.95089	0.19174	6.29729
0.95258	0.19223	6.31053
0.95427	0.19272	6.32377
0.95596	0.19321	6.33700
0.95764	0.19370	6.35022
0.95933	0.19420	6.36344
0.96102	0.19470	6.37665
0.96271	0.19520	6.38986
0.96440	0.19570	6.40306
0.96609	0.19620	6.41625
0.96778	0.19670	6.42944
0.96947	0.19721	6.44262
0.97116	0.19772	6.45580
0.97285	0.19823	6.46897
0.97454	0.19874	6.48213
0.97623	0.19925	6.49529
0.97792	0.19977	6.50845
0.97961	0.20029	6.52160
0.98130	0.20080	6.53474
0.98299	0.20132	6.54788
0.98468	0.20185	6.56101
0.98637	0.20237	6.57413
0.98806	0.20289	6.58726
0.98975	0.20342	6.60037
0.99144	0.20395	6.61348
0.99313	0.20448	6.62659
0.99482	0.20501	6.63969
0.99651	0.20555	6.65278
0.99820	0.20608	6.66587
0.99989	0.20662	6.67896
1.00158	0.20716	6.69204
1.00327	0.20770	6.70511
1.00496	0.20824	6.71818
1.00665	0.20878	6.73125
1.00834	0.20933	6.74431
1.01003	0.20987	6.75736
1.01172	0.21042	6.77041
1.01341	0.21097	6.78346
1.01509	0.21152	6.79650
1.01678	0.21208	6.80954
1.01847	0.21263	6.82257
1.02016	0.21319	6.83560
1.02185	0.21375	6.84862
1.02354	0.21430	6.86164
1.02523	0.21486	6.87465
1.02692	0.21543	6.88766
1.02861	0.21599	6.90066
1.03030	0.21656	6.91366
1.03199	0.21712	6.92666
1.03368	0.21769	6.93965
1.03537	0.21826	6.95264
1.03706	0.21883	6.96562
1.03875	0.21941	6.97860
1.04044	0.21998	6.99157
1.04213	0.22056	7.00454
1.04382	0.22113	7.01751
1.04551	0.22171	7.03047
1.04720	0.22229	7.04343
