Refractive index of gold at +63K
lambda [um]	n	k
0.55043	0.34622	2.48462
0.55212	0.33788	2.51233
0.55381	0.32996	2.53964
0.55550	0.32244	2.56658
0.55719	0.31530	2.59315
0.55888	0.30850	2.61936
0.56057	0.30203	2.64523
0.56225	0.29586	2.67077
0.56394	0.28999	2.69599
0.56563	0.28438	2.72090
0.56732	0.27904	2.74551
0.56901	0.27393	2.76983
0.57070	0.26905	2.79387
0.57239	0.26438	2.81764
0.57408	0.25992	2.84115
0.57577	0.25565	2.86441
0.57746	0.25156	2.88743
0.57915	0.24764	2.91021
0.58084	0.24389	2.93276
0.58253	0.24029	2.95509
0.58422	0.23683	2.97721
0.58591	0.23352	2.99912
0.58760	0.23034	3.02083
0.58929	0.22729	3.04234
0.59098	0.22435	3.06367
0.59267	0.22153	3.08482
0.59436	0.21882	3.10579
0.59605	0.21622	3.12659
0.59774	0.21371	3.14722
0.59943	0.21130	3.16769
0.60112	0.20899	3.18801
0.60281	0.20675	3.20817
0.60450	0.20461	3.22819
0.60619	0.20254	3.24806
0.60788	0.20054	3.26779
0.60957	0.19863	3.28739
0.61126	0.19678	3.30686
0.61295	0.19500	3.32620
0.61464	0.19328	3.34542
0.61633	0.19162	3.36452
0.61801	0.19003	3.38349
0.61970	0.18849	3.40236
0.62139	0.18701	3.42111
0.62308	0.18558	3.43976
0.62477	0.18420	3.45830
0.62646	0.18287	3.47673
0.62815	0.18159	3.49507
0.62984	0.18036	3.51331
0.63153	0.17917	3.53145
0.63322	0.17802	3.54950
0.63491	0.17691	3.56746
0.63660	0.17584	3.58534
0.63829	0.17481	3.60312
0.63998	0.17382	3.62082
0.64167	0.17286	3.63844
0.64336	0.17194	3.65599
0.64505	0.17105	3.67345
0.64674	0.17020	3.69083
0.64843	0.16937	3.70814
0.65012	0.16858	3.72538
0.65181	0.16781	3.74255
0.65350	0.16707	3.75965
0.65519	0.16636	3.77668
0.65688	0.16568	3.79364
0.65857	0.16502	3.81054
0.66026	0.16439	3.82737
0.66195	0.16378	3.84414
0.66364	0.16320	3.86086
0.66533	0.16264	3.87751
0.66702	0.16210	3.89410
0.66871	0.16158	3.91064
0.67040	0.16109	3.92712
0.67209	0.16061	3.94354
0.67378	0.16016	3.95991
0.67546	0.15972	3.97623
0.67715	0.15930	3.99250
0.67884	0.15890	4.00872
0.68053	0.15852	4.02488
0.68222	0.15816	4.04100
0.68391	0.15781	4.05707
0.68560	0.15748	4.07310
0.68729	0.15717	4.08907
0.68898	0.15687	4.10501
0.69067	0.15658	4.12090
0.69236	0.15631	4.13674
0.69405	0.15606	4.15255
0.69574	0.15582	4.16831
0.69743	0.15559	4.18403
0.69912	0.15538	4.19971
0.70081	0.15518	4.21536
0.70250	0.15499	4.23096
0.70419	0.15482	4.24652
0.70588	0.15465	4.26205
0.70757	0.15450	4.27754
0.70926	0.15437	4.29300
0.71095	0.15424	4.30842
0.71264	0.15412	4.32380
0.71433	0.15402	4.33916
0.71602	0.15392	4.35447
0.71771	0.15384	4.36976
0.71940	0.15376	4.38501
0.72109	0.15370	4.40023
0.72278	0.15364	4.41542
0.72447	0.15360	4.43058
0.72616	0.15356	4.44570
0.72785	0.15354	4.46080
0.72954	0.15352	4.47587
0.73122	0.15351	4.49091
0.73291	0.15351	4.50592
0.73460	0.15352	4.52090
0.73629	0.15354	4.53586
0.73798	0.15356	4.55079
0.73967	0.15359	4.56569
0.74136	0.15363	4.58056
0.74305	0.15368	4.59541
0.74474	0.15374	4.61024
0.74643	0.15380	4.62504
0.74812	0.15387	4.63981
0.74981	0.15395	4.65456
0.75150	0.15403	4.66929
0.75319	0.15412	4.68399
0.75488	0.15422	4.69867
0.75657	0.15433	4.71332
0.75826	0.15444	4.72796
0.75995	0.15456	4.74257
0.76164	0.15468	4.75716
0.76333	0.15481	4.77172
0.76502	0.15494	4.78627
0.76671	0.15509	4.80080
0.76840	0.15523	4.81530
0.77009	0.15539	4.82978
0.77178	0.15555	4.84425
0.77347	0.15571	4.85869
0.77516	0.15588	4.87312
0.77685	0.15606	4.88752
0.77854	0.15624	4.90191
0.78023	0.15642	4.91627
0.78192	0.15662	4.93062
0.78361	0.15681	4.94495
0.78530	0.15701	4.95926
0.78699	0.15722	4.97356
0.78867	0.15743	4.98784
0.79036	0.15765	5.00210
0.79205	0.15787	5.01634
0.79374	0.15809	5.03056
0.79543	0.15832	5.04477
0.79712	0.15856	5.05896
0.79881	0.15879	5.07314
0.80050	0.15904	5.08730
0.80219	0.15928	5.10144
0.80388	0.15954	5.11557
0.80557	0.15979	5.12968
0.80726	0.16005	5.14378
0.80895	0.16031	5.15786
0.81064	0.16058	5.17193
0.81233	0.16085	5.18598
0.81402	0.16113	5.20002
0.81571	0.16141	5.21404
0.81740	0.16169	5.22805
0.81909	0.16198	5.24205
0.82078	0.16227	5.25603
0.82247	0.16257	5.27000
0.82416	0.16287	5.28395
0.82585	0.16317	5.29789
0.82754	0.16347	5.31182
0.82923	0.16378	5.32574
0.83092	0.16409	5.33964
0.83261	0.16441	5.35353
0.83430	0.16473	5.36740
0.83599	0.16505	5.38127
0.83768	0.16538	5.39512
0.83937	0.16571	5.40896
0.84106	0.16604	5.42278
0.84275	0.16638	5.43660
0.84443	0.16672	5.45040
0.84612	0.16706	5.46419
0.84781	0.16740	5.47797
0.84950	0.16775	5.49174
0.85119	0.16810	5.50550
0.85288	0.16846	5.51925
0.85457	0.16881	5.53298
0.85626	0.16917	5.54671
0.85795	0.16954	5.56042
0.85964	0.16990	5.57412
0.86133	0.17027	5.58781
0.86302	0.17064	5.60150
0.86471	0.17102	5.61517
0.86640	0.17139	5.62883
0.86809	0.17177	5.64248
0.86978	0.17216	5.65612
0.87147	0.17254	5.66975
0.87316	0.17293	5.68337
0.87485	0.17332	5.69698
0.87654	0.17371	5.71059
0.87823	0.17411	5.72418
0.87992	0.17451	5.73776
0.88161	0.17491	5.75133
0.88330	0.17531	5.76490
0.88499	0.17572	5.77845
0.88668	0.17613	5.79200
0.88837	0.17654	5.80554
0.89006	0.17695	5.81906
0.89175	0.17737	5.83258
0.89344	0.17779	5.84609
0.89513	0.17821	5.85960
0.89682	0.17863	5.87309
0.89851	0.17906	5.88657
0.90020	0.17948	5.90005
0.90188	0.17991	5.91352
0.90357	0.18035	5.92698
0.90526	0.18078	5.94043
0.90695	0.18122	5.95387
0.90864	0.18166	5.96731
0.91033	0.18210	5.98074
0.91202	0.18254	5.99416
0.91371	0.18299	6.00757
0.91540	0.18344	6.02098
0.91709	0.18389	6.03437
0.91878	0.18434	6.04776
0.92047	0.18479	6.06114
0.92216	0.18525	6.07452
0.92385	0.18571	6.08788
0.92554	0.18617	6.10124
0.92723	0.18663	6.11460
0.92892	0.18710	6.12794
0.93061	0.18756	6.14128
0.93230	0.18803	6.15461
0.93399	0.18850	6.16793
0.93568	0.18898	6.18125
0.93737	0.18945	6.19456
0.93906	0.18993	6.20787
0.94075	0.19041	6.22116
0.94244	0.19089	6.23445
0.94413	0.19137	6.24774
0.94582	0.19185	6.26101
0.94751	0.19234	6.27428
0.94920	0.19283	6.28755
0.95089	0.19332	6.30081
0.95258	0.19381	6.31406
0.95427	0.19431	6.32730
0.95596	0.19480	6.34054
0.95764	0.19530	6.35377
0.95933	0.19580	6.36700
0.96102	0.19630	6.38022
0.96271	0.19681	6.39343
0.96440	0.19731	6.40664
0.96609	0.19782	6.41985
0.96778	0.19833	6.43304
0.96947	0.19884	6.44623
0.97116	0.19935	6.45942
0.97285	0.19987	6.47260
0.97454	0.20038	6.48577
0.97623	0.20090	6.49894
0.97792	0.20142	6.51210
0.97961	0.20194	6.52526
0.98130	0.20246	6.53841
0.98299	0.20299	6.55155
0.98468	0.20352	6.56469
0.98637	0.20404	6.57783
0.98806	0.20457	6.59096
0.98975	0.20511	6.60408
0.99144	0.20564	6.61720
0.99313	0.20617	6.63032
0.99482	0.20671	6.64342
0.99651	0.20725	6.65653
0.99820	0.20779	6.66963
0.99989	0.20833	6.68272
1.00158	0.20887	6.69581
1.00327	0.20942	6.70889
1.00496	0.20997	6.72197
1.00665	0.21051	6.73504
1.00834	0.21106	6.74811
1.01003	0.21161	6.76117
1.01172	0.21217	6.77423
1.01341	0.21272	6.78729
1.01509	0.21328	6.80034
1.01678	0.21384	6.81338
1.01847	0.21440	6.82642
1.02016	0.21496	6.83946
1.02185	0.21552	6.85249
1.02354	0.21608	6.86551
1.02523	0.21665	6.87854
1.02692	0.21722	6.89155
1.02861	0.21778	6.90456
1.03030	0.21836	6.91757
1.03199	0.21893	6.93058
1.03368	0.21950	6.94358
1.03537	0.22007	6.95657
1.03706	0.22065	6.96956
1.03875	0.22123	6.98255
1.04044	0.22181	6.99553
1.04213	0.22239	7.00851
1.04382	0.22297	7.02148
1.04551	0.22356	7.03445
1.04720	0.22414	7.04742
