Refractive index of gold at +64K
lambda [um]	n	k
0.55043	0.34634	2.48493
0.55212	0.33800	2.51263
0.55381	0.33009	2.53994
0.55550	0.32257	2.56687
0.55719	0.31542	2.59344
0.55888	0.30862	2.61965
0.56057	0.30215	2.64552
0.56225	0.29598	2.67106
0.56394	0.29011	2.69627
0.56563	0.28450	2.72118
0.56732	0.27915	2.74579
0.56901	0.27405	2.77011
0.57070	0.26916	2.79415
0.57239	0.26450	2.81792
0.57408	0.26003	2.84143
0.57577	0.25576	2.86469
0.57746	0.25167	2.88770
0.57915	0.24775	2.91048
0.58084	0.24400	2.93303
0.58253	0.24040	2.95536
0.58422	0.23694	2.97748
0.58591	0.23363	2.99939
0.58760	0.23045	3.02110
0.58929	0.22740	3.04261
0.59098	0.22446	3.06394
0.59267	0.22164	3.08509
0.59436	0.21893	3.10606
0.59605	0.21633	3.12686
0.59774	0.21382	3.14749
0.59943	0.21141	3.16796
0.60112	0.20909	3.18828
0.60281	0.20686	3.20844
0.60450	0.20471	3.22846
0.60619	0.20264	3.24833
0.60788	0.20065	3.26806
0.60957	0.19873	3.28766
0.61126	0.19688	3.30713
0.61295	0.19510	3.32647
0.61464	0.19338	3.34569
0.61633	0.19173	3.36479
0.61801	0.19014	3.38377
0.61970	0.18860	3.40263
0.62139	0.18712	3.42139
0.62308	0.18569	3.44003
0.62477	0.18431	3.45857
0.62646	0.18298	3.47701
0.62815	0.18170	3.49535
0.62984	0.18046	3.51359
0.63153	0.17927	3.53173
0.63322	0.17812	3.54978
0.63491	0.17702	3.56774
0.63660	0.17595	3.58562
0.63829	0.17492	3.60340
0.63998	0.17393	3.62111
0.64167	0.17297	3.63873
0.64336	0.17205	3.65627
0.64505	0.17116	3.67373
0.64674	0.17030	3.69112
0.64843	0.16948	3.70843
0.65012	0.16868	3.72567
0.65181	0.16792	3.74284
0.65350	0.16718	3.75994
0.65519	0.16647	3.77697
0.65688	0.16579	3.79393
0.65857	0.16513	3.81083
0.66026	0.16450	3.82767
0.66195	0.16389	3.84444
0.66364	0.16331	3.86115
0.66533	0.16275	3.87780
0.66702	0.16221	3.89440
0.66871	0.16169	3.91094
0.67040	0.16119	3.92742
0.67209	0.16072	3.94384
0.67378	0.16026	3.96022
0.67546	0.15983	3.97654
0.67715	0.15941	3.99280
0.67884	0.15901	4.00902
0.68053	0.15863	4.02519
0.68222	0.15827	4.04131
0.68391	0.15792	4.05738
0.68560	0.15759	4.07341
0.68729	0.15727	4.08939
0.68898	0.15698	4.10532
0.69067	0.15669	4.12121
0.69236	0.15642	4.13706
0.69405	0.15617	4.15287
0.69574	0.15593	4.16863
0.69743	0.15570	4.18435
0.69912	0.15549	4.20003
0.70081	0.15529	4.21568
0.70250	0.15510	4.23128
0.70419	0.15493	4.24685
0.70588	0.15477	4.26238
0.70757	0.15462	4.27787
0.70926	0.15448	4.29333
0.71095	0.15435	4.30875
0.71264	0.15423	4.32413
0.71433	0.15413	4.33949
0.71602	0.15403	4.35481
0.71771	0.15395	4.37009
0.71940	0.15388	4.38535
0.72109	0.15381	4.40057
0.72278	0.15376	4.41576
0.72447	0.15371	4.43092
0.72616	0.15368	4.44604
0.72785	0.15365	4.46114
0.72954	0.15363	4.47621
0.73122	0.15363	4.49125
0.73291	0.15363	4.50627
0.73460	0.15364	4.52125
0.73629	0.15365	4.53621
0.73798	0.15368	4.55114
0.73967	0.15371	4.56604
0.74136	0.15375	4.58092
0.74305	0.15380	4.59577
0.74474	0.15386	4.61059
0.74643	0.15392	4.62539
0.74812	0.15399	4.64017
0.74981	0.15407	4.65492
0.75150	0.15415	4.66965
0.75319	0.15424	4.68435
0.75488	0.15434	4.69903
0.75657	0.15445	4.71369
0.75826	0.15456	4.72832
0.75995	0.15468	4.74293
0.76164	0.15480	4.75753
0.76333	0.15493	4.77209
0.76502	0.15507	4.78664
0.76671	0.15521	4.80117
0.76840	0.15536	4.81567
0.77009	0.15551	4.83016
0.77178	0.15567	4.84462
0.77347	0.15584	4.85907
0.77516	0.15601	4.87350
0.77685	0.15618	4.88790
0.77854	0.15636	4.90229
0.78023	0.15655	4.91666
0.78192	0.15674	4.93101
0.78361	0.15694	4.94534
0.78530	0.15714	4.95965
0.78699	0.15735	4.97395
0.78867	0.15756	4.98823
0.79036	0.15777	5.00249
0.79205	0.15799	5.01673
0.79374	0.15822	5.03096
0.79543	0.15845	5.04517
0.79712	0.15868	5.05936
0.79881	0.15892	5.07354
0.80050	0.15917	5.08770
0.80219	0.15941	5.10184
0.80388	0.15967	5.11597
0.80557	0.15992	5.13009
0.80726	0.16018	5.14419
0.80895	0.16045	5.15827
0.81064	0.16072	5.17234
0.81233	0.16099	5.18639
0.81402	0.16126	5.20043
0.81571	0.16154	5.21446
0.81740	0.16183	5.22847
0.81909	0.16212	5.24246
0.82078	0.16241	5.25645
0.82247	0.16270	5.27042
0.82416	0.16300	5.28437
0.82585	0.16330	5.29831
0.82754	0.16361	5.31224
0.82923	0.16392	5.32616
0.83092	0.16423	5.34006
0.83261	0.16455	5.35395
0.83430	0.16487	5.36783
0.83599	0.16519	5.38169
0.83768	0.16552	5.39555
0.83937	0.16585	5.40939
0.84106	0.16618	5.42322
0.84275	0.16652	5.43703
0.84443	0.16686	5.45084
0.84612	0.16720	5.46463
0.84781	0.16754	5.47841
0.84950	0.16789	5.49218
0.85119	0.16824	5.50594
0.85288	0.16860	5.51969
0.85457	0.16896	5.53343
0.85626	0.16932	5.54715
0.85795	0.16968	5.56087
0.85964	0.17005	5.57457
0.86133	0.17042	5.58826
0.86302	0.17079	5.60195
0.86471	0.17116	5.61562
0.86640	0.17154	5.62928
0.86809	0.17192	5.64293
0.86978	0.17230	5.65658
0.87147	0.17269	5.67021
0.87316	0.17308	5.68383
0.87485	0.17347	5.69744
0.87654	0.17386	5.71105
0.87823	0.17426	5.72464
0.87992	0.17466	5.73823
0.88161	0.17506	5.75180
0.88330	0.17546	5.76537
0.88499	0.17587	5.77892
0.88668	0.17628	5.79247
0.88837	0.17669	5.80601
0.89006	0.17711	5.81954
0.89175	0.17752	5.83306
0.89344	0.17794	5.84657
0.89513	0.17836	5.86007
0.89682	0.17879	5.87357
0.89851	0.17921	5.88705
0.90020	0.17964	5.90053
0.90188	0.18007	5.91400
0.90357	0.18050	5.92746
0.90526	0.18094	5.94092
0.90695	0.18138	5.95436
0.90864	0.18182	5.96780
0.91033	0.18226	5.98123
0.91202	0.18270	5.99465
0.91371	0.18315	6.00806
0.91540	0.18360	6.02147
0.91709	0.18405	6.03487
0.91878	0.18450	6.04826
0.92047	0.18495	6.06164
0.92216	0.18541	6.07501
0.92385	0.18587	6.08838
0.92554	0.18633	6.10174
0.92723	0.18679	6.11510
0.92892	0.18726	6.12844
0.93061	0.18773	6.14178
0.93230	0.18820	6.15512
0.93399	0.18867	6.16844
0.93568	0.18914	6.18176
0.93737	0.18962	6.19507
0.93906	0.19010	6.20838
0.94075	0.19057	6.22168
0.94244	0.19106	6.23497
0.94413	0.19154	6.24825
0.94582	0.19202	6.26153
0.94751	0.19251	6.27480
0.94920	0.19300	6.28807
0.95089	0.19349	6.30133
0.95258	0.19399	6.31458
0.95427	0.19448	6.32783
0.95596	0.19498	6.34107
0.95764	0.19548	6.35430
0.95933	0.19598	6.36753
0.96102	0.19648	6.38075
0.96271	0.19698	6.39396
0.96440	0.19749	6.40717
0.96609	0.19800	6.42038
0.96778	0.19851	6.43358
0.96947	0.19902	6.44677
0.97116	0.19953	6.45995
0.97285	0.20004	6.47313
0.97454	0.20056	6.48631
0.97623	0.20108	6.49948
0.97792	0.20160	6.51264
0.97961	0.20212	6.52580
0.98130	0.20265	6.53895
0.98299	0.20317	6.55210
0.98468	0.20370	6.56524
0.98637	0.20423	6.57838
0.98806	0.20476	6.59151
0.98975	0.20529	6.60463
0.99144	0.20582	6.61775
0.99313	0.20636	6.63087
0.99482	0.20690	6.64398
0.99651	0.20743	6.65708
0.99820	0.20798	6.67018
0.99989	0.20852	6.68328
1.00158	0.20906	6.69637
1.00327	0.20961	6.70945
1.00496	0.21015	6.72253
1.00665	0.21070	6.73561
1.00834	0.21125	6.74868
1.01003	0.21181	6.76174
1.01172	0.21236	6.77480
1.01341	0.21291	6.78786
1.01509	0.21347	6.80091
1.01678	0.21403	6.81395
1.01847	0.21459	6.82699
1.02016	0.21515	6.84003
1.02185	0.21571	6.85306
1.02354	0.21628	6.86609
1.02523	0.21684	6.87911
1.02692	0.21741	6.89213
1.02861	0.21798	6.90515
1.03030	0.21855	6.91816
1.03199	0.21912	6.93116
1.03368	0.21970	6.94416
1.03537	0.22027	6.95716
1.03706	0.22085	6.97015
1.03875	0.22143	6.98314
1.04044	0.22201	6.99612
1.04213	0.22259	7.00910
1.04382	0.22317	7.02208
1.04551	0.22376	7.03505
1.04720	0.22434	7.04802
