Refractive index of gold at +74K
lambda [um]	n	k
0.55043	0.34862	2.48732
0.55212	0.34021	2.51502
0.55381	0.33223	2.54234
0.55550	0.32465	2.56927
0.55719	0.31744	2.59584
0.55888	0.31059	2.62206
0.56057	0.30406	2.64793
0.56225	0.29785	2.67348
0.56394	0.29193	2.69870
0.56563	0.28628	2.72362
0.56732	0.28089	2.74824
0.56901	0.27574	2.77257
0.57070	0.27082	2.79662
0.57239	0.26612	2.82040
0.57408	0.26162	2.84392
0.57577	0.25732	2.86719
0.57746	0.25320	2.89021
0.57915	0.24926	2.91300
0.58084	0.24548	2.93557
0.58253	0.24185	2.95791
0.58422	0.23837	2.98004
0.58591	0.23504	3.00196
0.58760	0.23184	3.02368
0.58929	0.22876	3.04521
0.59098	0.22581	3.06655
0.59267	0.22298	3.08771
0.59436	0.22025	3.10870
0.59605	0.21763	3.12951
0.59774	0.21511	3.15015
0.59943	0.21268	3.17064
0.60112	0.21035	3.19097
0.60281	0.20811	3.21115
0.60450	0.20595	3.23118
0.60619	0.20387	3.25107
0.60788	0.20186	3.27081
0.60957	0.19994	3.29043
0.61126	0.19808	3.30991
0.61295	0.19629	3.32927
0.61464	0.19456	3.34850
0.61633	0.19290	3.36761
0.61801	0.19130	3.38660
0.61970	0.18975	3.40548
0.62139	0.18827	3.42425
0.62308	0.18683	3.44291
0.62477	0.18545	3.46146
0.62646	0.18411	3.47992
0.62815	0.18283	3.49827
0.62984	0.18159	3.51652
0.63153	0.18039	3.53468
0.63322	0.17924	3.55275
0.63491	0.17813	3.57072
0.63660	0.17706	3.58861
0.63829	0.17602	3.60642
0.63998	0.17503	3.62413
0.64167	0.17407	3.64177
0.64336	0.17314	3.65933
0.64505	0.17225	3.67680
0.64674	0.17139	3.69421
0.64843	0.17057	3.71153
0.65012	0.16977	3.72879
0.65181	0.16900	3.74597
0.65350	0.16827	3.76309
0.65519	0.16756	3.78013
0.65688	0.16687	3.79711
0.65857	0.16621	3.81403
0.66026	0.16558	3.83088
0.66195	0.16497	3.84766
0.66364	0.16439	3.86439
0.66533	0.16383	3.88106
0.66702	0.16329	3.89767
0.66871	0.16277	3.91422
0.67040	0.16228	3.93072
0.67209	0.16180	3.94716
0.67378	0.16135	3.96355
0.67546	0.16091	3.97988
0.67715	0.16050	3.99617
0.67884	0.16010	4.01240
0.68053	0.15972	4.02858
0.68222	0.15936	4.04472
0.68391	0.15901	4.06081
0.68560	0.15868	4.07685
0.68729	0.15837	4.09284
0.68898	0.15807	4.10880
0.69067	0.15779	4.12470
0.69236	0.15752	4.14056
0.69405	0.15727	4.15639
0.69574	0.15703	4.17217
0.69743	0.15681	4.18790
0.69912	0.15660	4.20360
0.70081	0.15640	4.21926
0.70250	0.15621	4.23488
0.70419	0.15604	4.25046
0.70588	0.15588	4.26601
0.70757	0.15573	4.28152
0.70926	0.15560	4.29699
0.71095	0.15547	4.31243
0.71264	0.15536	4.32783
0.71433	0.15526	4.34320
0.71602	0.15517	4.35853
0.71771	0.15508	4.37383
0.71940	0.15501	4.38910
0.72109	0.15495	4.40434
0.72278	0.15490	4.41955
0.72447	0.15486	4.43472
0.72616	0.15483	4.44987
0.72785	0.15480	4.46498
0.72954	0.15479	4.48007
0.73122	0.15478	4.49512
0.73291	0.15479	4.51015
0.73460	0.15480	4.52515
0.73629	0.15482	4.54013
0.73798	0.15485	4.55507
0.73967	0.15488	4.56999
0.74136	0.15493	4.58488
0.74305	0.15498	4.59975
0.74474	0.15504	4.61459
0.74643	0.15511	4.62941
0.74812	0.15518	4.64420
0.74981	0.15526	4.65897
0.75150	0.15535	4.67371
0.75319	0.15545	4.68843
0.75488	0.15555	4.70313
0.75657	0.15566	4.71780
0.75826	0.15577	4.73245
0.75995	0.15589	4.74708
0.76164	0.15602	4.76169
0.76333	0.15615	4.77627
0.76502	0.15629	4.79083
0.76671	0.15644	4.80538
0.76840	0.15659	4.81990
0.77009	0.15675	4.83440
0.77178	0.15691	4.84888
0.77347	0.15708	4.86334
0.77516	0.15726	4.87778
0.77685	0.15744	4.89221
0.77854	0.15762	4.90661
0.78023	0.15781	4.92100
0.78192	0.15801	4.93536
0.78361	0.15821	4.94971
0.78530	0.15841	4.96404
0.78699	0.15863	4.97835
0.78867	0.15884	4.99264
0.79036	0.15906	5.00692
0.79205	0.15929	5.02118
0.79374	0.15952	5.03542
0.79543	0.15975	5.04965
0.79712	0.15999	5.06386
0.79881	0.16023	5.07805
0.80050	0.16048	5.09223
0.80219	0.16073	5.10639
0.80388	0.16099	5.12054
0.80557	0.16125	5.13467
0.80726	0.16151	5.14878
0.80895	0.16178	5.16288
0.81064	0.16206	5.17697
0.81233	0.16233	5.19104
0.81402	0.16261	5.20509
0.81571	0.16290	5.21913
0.81740	0.16319	5.23316
0.81909	0.16348	5.24717
0.82078	0.16377	5.26117
0.82247	0.16407	5.27516
0.82416	0.16438	5.28913
0.82585	0.16468	5.30309
0.82754	0.16500	5.31703
0.82923	0.16531	5.33096
0.83092	0.16563	5.34488
0.83261	0.16595	5.35879
0.83430	0.16627	5.37268
0.83599	0.16660	5.38656
0.83768	0.16693	5.40043
0.83937	0.16727	5.41429
0.84106	0.16760	5.42813
0.84275	0.16794	5.44197
0.84443	0.16829	5.45579
0.84612	0.16864	5.46960
0.84781	0.16899	5.48340
0.84950	0.16934	5.49718
0.85119	0.16970	5.51096
0.85288	0.17006	5.52472
0.85457	0.17042	5.53847
0.85626	0.17078	5.55221
0.85795	0.17115	5.56595
0.85964	0.17152	5.57967
0.86133	0.17190	5.59338
0.86302	0.17228	5.60707
0.86471	0.17266	5.62076
0.86640	0.17304	5.63444
0.86809	0.17342	5.64811
0.86978	0.17381	5.66177
0.87147	0.17420	5.67542
0.87316	0.17460	5.68906
0.87485	0.17499	5.70268
0.87654	0.17539	5.71630
0.87823	0.17579	5.72991
0.87992	0.17620	5.74351
0.88161	0.17660	5.75710
0.88330	0.17701	5.77069
0.88499	0.17742	5.78426
0.88668	0.17784	5.79782
0.88837	0.17825	5.81138
0.89006	0.17867	5.82492
0.89175	0.17910	5.83846
0.89344	0.17952	5.85199
0.89513	0.17995	5.86550
0.89682	0.18037	5.87902
0.89851	0.18081	5.89252
0.90020	0.18124	5.90601
0.90188	0.18168	5.91950
0.90357	0.18211	5.93297
0.90526	0.18255	5.94644
0.90695	0.18300	5.95990
0.90864	0.18344	5.97336
0.91033	0.18389	5.98680
0.91202	0.18434	6.00024
0.91371	0.18479	6.01367
0.91540	0.18524	6.02709
0.91709	0.18570	6.04050
0.91878	0.18616	6.05391
0.92047	0.18662	6.06731
0.92216	0.18708	6.08070
0.92385	0.18755	6.09409
0.92554	0.18801	6.10746
0.92723	0.18848	6.12083
0.92892	0.18895	6.13419
0.93061	0.18942	6.14755
0.93230	0.18990	6.16090
0.93399	0.19038	6.17424
0.93568	0.19086	6.18757
0.93737	0.19134	6.20090
0.93906	0.19182	6.21422
0.94075	0.19230	6.22754
0.94244	0.19279	6.24084
0.94413	0.19328	6.25414
0.94582	0.19377	6.26744
0.94751	0.19426	6.28073
0.94920	0.19476	6.29401
0.95089	0.19526	6.30728
0.95258	0.19575	6.32055
0.95427	0.19625	6.33381
0.95596	0.19676	6.34707
0.95764	0.19726	6.36032
0.95933	0.19777	6.37356
0.96102	0.19828	6.38680
0.96271	0.19879	6.40003
0.96440	0.19930	6.41326
0.96609	0.19981	6.42648
0.96778	0.20033	6.43969
0.96947	0.20084	6.45290
0.97116	0.20136	6.46610
0.97285	0.20188	6.47929
0.97454	0.20240	6.49249
0.97623	0.20293	6.50567
0.97792	0.20346	6.51885
0.97961	0.20398	6.53202
0.98130	0.20451	6.54519
0.98299	0.20504	6.55835
0.98468	0.20558	6.57151
0.98637	0.20611	6.58466
0.98806	0.20665	6.59781
0.98975	0.20719	6.61095
0.99144	0.20773	6.62409
0.99313	0.20827	6.63722
0.99482	0.20881	6.65034
0.99651	0.20935	6.66346
0.99820	0.20990	6.67658
0.99989	0.21045	6.68969
1.00158	0.21100	6.70279
1.00327	0.21155	6.71589
1.00496	0.21210	6.72899
1.00665	0.21266	6.74208
1.00834	0.21322	6.75516
1.01003	0.21377	6.76824
1.01172	0.21433	6.78132
1.01341	0.21489	6.79439
1.01509	0.21546	6.80746
1.01678	0.21602	6.82052
1.01847	0.21659	6.83358
1.02016	0.21715	6.84663
1.02185	0.21772	6.85968
1.02354	0.21829	6.87272
1.02523	0.21887	6.88576
1.02692	0.21944	6.89879
1.02861	0.22002	6.91182
1.03030	0.22059	6.92485
1.03199	0.22117	6.93787
1.03368	0.22175	6.95088
1.03537	0.22233	6.96390
1.03706	0.22292	6.97690
1.03875	0.22350	6.98991
1.04044	0.22409	7.00291
1.04213	0.22467	7.01590
1.04382	0.22526	7.02889
1.04551	0.22585	7.04188
1.04720	0.22645	7.05486
