Refractive index of gold at +8K
lambda [um]	n	k
0.55043	0.33333	2.48442
0.55212	0.32503	2.51213
0.55381	0.31716	2.53944
0.55550	0.30970	2.56636
0.55719	0.30261	2.59291
0.55888	0.29587	2.61909
0.56057	0.28946	2.64493
0.56225	0.28336	2.67043
0.56394	0.27755	2.69561
0.56563	0.27202	2.72047
0.56732	0.26674	2.74503
0.56901	0.26170	2.76930
0.57070	0.25689	2.79328
0.57239	0.25229	2.81699
0.57408	0.24790	2.84044
0.57577	0.24370	2.86363
0.57746	0.23968	2.88658
0.57915	0.23583	2.90929
0.58084	0.23214	2.93177
0.58253	0.22861	2.95403
0.58422	0.22523	2.97607
0.58591	0.22198	2.99791
0.58760	0.21886	3.01954
0.58929	0.21587	3.04098
0.59098	0.21300	3.06223
0.59267	0.21025	3.08329
0.59436	0.20760	3.10418
0.59605	0.20505	3.12490
0.59774	0.20260	3.14546
0.59943	0.20025	3.16585
0.60112	0.19799	3.18608
0.60281	0.19581	3.20616
0.60450	0.19372	3.22610
0.60619	0.19170	3.24589
0.60788	0.18976	3.26555
0.60957	0.18789	3.28507
0.61126	0.18609	3.30445
0.61295	0.18436	3.32371
0.61464	0.18269	3.34285
0.61633	0.18108	3.36187
0.61801	0.17953	3.38077
0.61970	0.17803	3.39955
0.62139	0.17659	3.41823
0.62308	0.17520	3.43679
0.62477	0.17386	3.45526
0.62646	0.17257	3.47362
0.62815	0.17133	3.49188
0.62984	0.17013	3.51004
0.63153	0.16898	3.52811
0.63322	0.16786	3.54608
0.63491	0.16679	3.56397
0.63660	0.16575	3.58177
0.63829	0.16475	3.59948
0.63998	0.16379	3.61711
0.64167	0.16286	3.63466
0.64336	0.16197	3.65213
0.64505	0.16111	3.66952
0.64674	0.16028	3.68683
0.64843	0.15948	3.70408
0.65012	0.15871	3.72125
0.65181	0.15797	3.73834
0.65350	0.15725	3.75537
0.65519	0.15656	3.77234
0.65688	0.15590	3.78923
0.65857	0.15527	3.80606
0.66026	0.15465	3.82283
0.66195	0.15406	3.83954
0.66364	0.15350	3.85619
0.66533	0.15296	3.87277
0.66702	0.15243	3.88930
0.66871	0.15193	3.90578
0.67040	0.15145	3.92219
0.67209	0.15099	3.93856
0.67378	0.15055	3.95487
0.67546	0.15013	3.97113
0.67715	0.14972	3.98733
0.67884	0.14933	4.00349
0.68053	0.14896	4.01960
0.68222	0.14861	4.03566
0.68391	0.14827	4.05167
0.68560	0.14795	4.06764
0.68729	0.14765	4.08356
0.68898	0.14736	4.09944
0.69067	0.14708	4.11527
0.69236	0.14682	4.13106
0.69405	0.14657	4.14681
0.69574	0.14634	4.16252
0.69743	0.14612	4.17819
0.69912	0.14591	4.19382
0.70081	0.14571	4.20941
0.70250	0.14553	4.22496
0.70419	0.14536	4.24047
0.70588	0.14520	4.25595
0.70757	0.14505	4.27139
0.70926	0.14491	4.28679
0.71095	0.14479	4.30216
0.71264	0.14467	4.31750
0.71433	0.14457	4.33280
0.71602	0.14447	4.34807
0.71771	0.14439	4.36331
0.71940	0.14431	4.37851
0.72109	0.14425	4.39368
0.72278	0.14419	4.40883
0.72447	0.14414	4.42394
0.72616	0.14411	4.43902
0.72785	0.14408	4.45407
0.72954	0.14406	4.46909
0.73122	0.14404	4.48409
0.73291	0.14404	4.49905
0.73460	0.14404	4.51399
0.73629	0.14406	4.52891
0.73798	0.14408	4.54379
0.73967	0.14410	4.55865
0.74136	0.14414	4.57348
0.74305	0.14418	4.58829
0.74474	0.14423	4.60307
0.74643	0.14429	4.61783
0.74812	0.14435	4.63256
0.74981	0.14442	4.64727
0.75150	0.14449	4.66196
0.75319	0.14458	4.67662
0.75488	0.14467	4.69126
0.75657	0.14476	4.70587
0.75826	0.14486	4.72047
0.75995	0.14497	4.73504
0.76164	0.14509	4.74959
0.76333	0.14521	4.76412
0.76502	0.14533	4.77863
0.76671	0.14546	4.79311
0.76840	0.14560	4.80758
0.77009	0.14574	4.82203
0.77178	0.14589	4.83646
0.77347	0.14604	4.85086
0.77516	0.14620	4.86525
0.77685	0.14636	4.87962
0.77854	0.14653	4.89397
0.78023	0.14671	4.90830
0.78192	0.14688	4.92262
0.78361	0.14707	4.93691
0.78530	0.14725	4.95119
0.78699	0.14745	4.96545
0.78867	0.14764	4.97969
0.79036	0.14785	4.99392
0.79205	0.14805	5.00812
0.79374	0.14826	5.02232
0.79543	0.14848	5.03649
0.79712	0.14870	5.05065
0.79881	0.14892	5.06479
0.80050	0.14915	5.07892
0.80219	0.14938	5.09303
0.80388	0.14961	5.10713
0.80557	0.14985	5.12121
0.80726	0.15009	5.13528
0.80895	0.15034	5.14933
0.81064	0.15059	5.16336
0.81233	0.15085	5.17738
0.81402	0.15111	5.19139
0.81571	0.15137	5.20538
0.81740	0.15163	5.21936
0.81909	0.15190	5.23333
0.82078	0.15218	5.24728
0.82247	0.15245	5.26122
0.82416	0.15273	5.27514
0.82585	0.15301	5.28906
0.82754	0.15330	5.30295
0.82923	0.15359	5.31684
0.83092	0.15388	5.33071
0.83261	0.15418	5.34457
0.83430	0.15448	5.35842
0.83599	0.15478	5.37226
0.83768	0.15509	5.38608
0.83937	0.15540	5.39989
0.84106	0.15571	5.41369
0.84275	0.15602	5.42748
0.84443	0.15634	5.44125
0.84612	0.15666	5.45502
0.84781	0.15699	5.46877
0.84950	0.15731	5.48251
0.85119	0.15764	5.49625
0.85288	0.15798	5.50997
0.85457	0.15831	5.52367
0.85626	0.15865	5.53737
0.85795	0.15899	5.55106
0.85964	0.15933	5.56474
0.86133	0.15968	5.57840
0.86302	0.16003	5.59206
0.86471	0.16038	5.60571
0.86640	0.16073	5.61934
0.86809	0.16109	5.63297
0.86978	0.16145	5.64658
0.87147	0.16181	5.66019
0.87316	0.16218	5.67379
0.87485	0.16254	5.68737
0.87654	0.16291	5.70095
0.87823	0.16328	5.71452
0.87992	0.16366	5.72808
0.88161	0.16403	5.74163
0.88330	0.16441	5.75517
0.88499	0.16479	5.76870
0.88668	0.16518	5.78222
0.88837	0.16556	5.79573
0.89006	0.16595	5.80924
0.89175	0.16634	5.82273
0.89344	0.16674	5.83622
0.89513	0.16713	5.84970
0.89682	0.16753	5.86317
0.89851	0.16793	5.87663
0.90020	0.16833	5.89009
0.90188	0.16873	5.90353
0.90357	0.16914	5.91697
0.90526	0.16955	5.93040
0.90695	0.16996	5.94382
0.90864	0.17037	5.95723
0.91033	0.17079	5.97064
0.91202	0.17120	5.98404
0.91371	0.17162	5.99743
0.91540	0.17204	6.01081
0.91709	0.17246	6.02419
0.91878	0.17289	6.03755
0.92047	0.17332	6.05091
0.92216	0.17374	6.06427
0.92385	0.17418	6.07761
0.92554	0.17461	6.09095
0.92723	0.17504	6.10428
0.92892	0.17548	6.11761
0.93061	0.17592	6.13092
0.93230	0.17636	6.14423
0.93399	0.17680	6.15754
0.93568	0.17724	6.17084
0.93737	0.17769	6.18413
0.93906	0.17814	6.19741
0.94075	0.17859	6.21068
0.94244	0.17904	6.22395
0.94413	0.17949	6.23722
0.94582	0.17995	6.25048
0.94751	0.18041	6.26373
0.94920	0.18087	6.27697
0.95089	0.18133	6.29021
0.95258	0.18179	6.30344
0.95427	0.18225	6.31667
0.95596	0.18272	6.32988
0.95764	0.18319	6.34310
0.95933	0.18366	6.35630
0.96102	0.18413	6.36951
0.96271	0.18460	6.38270
0.96440	0.18508	6.39589
0.96609	0.18555	6.40907
0.96778	0.18603	6.42225
0.96947	0.18651	6.43542
0.97116	0.18699	6.44859
0.97285	0.18748	6.46175
0.97454	0.18796	6.47491
0.97623	0.18845	6.48805
0.97792	0.18893	6.50120
0.97961	0.18942	6.51434
0.98130	0.18992	6.52747
0.98299	0.19041	6.54060
0.98468	0.19090	6.55372
0.98637	0.19140	6.56684
0.98806	0.19190	6.57995
0.98975	0.19240	6.59305
0.99144	0.19290	6.60615
0.99313	0.19340	6.61925
0.99482	0.19390	6.63234
0.99651	0.19441	6.64543
0.99820	0.19492	6.65851
0.99989	0.19543	6.67158
1.00158	0.19594	6.68465
1.00327	0.19645	6.69772
1.00496	0.19696	6.71078
1.00665	0.19748	6.72384
1.00834	0.19799	6.73689
1.01003	0.19851	6.74993
1.01172	0.19903	6.76298
1.01341	0.19955	6.77601
1.01509	0.20007	6.78905
1.01678	0.20060	6.80207
1.01847	0.20112	6.81510
1.02016	0.20165	6.82812
1.02185	0.20218	6.84113
1.02354	0.20271	6.85414
1.02523	0.20324	6.86714
1.02692	0.20377	6.88014
1.02861	0.20431	6.89314
1.03030	0.20484	6.90613
1.03199	0.20538	6.91912
1.03368	0.20592	6.93210
1.03537	0.20646	6.94508
1.03706	0.20700	6.95806
1.03875	0.20754	6.97103
1.04044	0.20809	6.98399
1.04213	0.20863	6.99696
1.04382	0.20918	7.00991
1.04551	0.20973	7.02287
1.04720	0.21028	7.03582
