Refractive index of gold at +97K
lambda [um]	n	k
0.55043	0.35949	2.50351
0.55212	0.35042	2.53106
0.55381	0.34183	2.55824
0.55550	0.33368	2.58506
0.55719	0.32594	2.61153
0.55888	0.31859	2.63765
0.56057	0.31160	2.66344
0.56225	0.30494	2.68891
0.56394	0.29861	2.71407
0.56563	0.29258	2.73893
0.56732	0.28683	2.76350
0.56901	0.28134	2.78778
0.57070	0.27611	2.81179
0.57239	0.27111	2.83554
0.57408	0.26633	2.85903
0.57577	0.26177	2.88227
0.57746	0.25740	2.90528
0.57915	0.25322	2.92805
0.58084	0.24922	2.95060
0.58253	0.24539	2.97293
0.58422	0.24172	2.99505
0.58591	0.23821	3.01697
0.58760	0.23483	3.03869
0.58929	0.23160	3.06022
0.59098	0.22849	3.08156
0.59267	0.22551	3.10272
0.59436	0.22265	3.12371
0.59605	0.21990	3.14453
0.59774	0.21726	3.16519
0.59943	0.21472	3.18569
0.60112	0.21228	3.20603
0.60281	0.20993	3.22622
0.60450	0.20768	3.24627
0.60619	0.20550	3.26618
0.60788	0.20342	3.28595
0.60957	0.20141	3.30558
0.61126	0.19947	3.32509
0.61295	0.19761	3.34447
0.61464	0.19581	3.36373
0.61633	0.19409	3.38287
0.61801	0.19243	3.40189
0.61970	0.19082	3.42080
0.62139	0.18928	3.43960
0.62308	0.18779	3.45830
0.62477	0.18636	3.47688
0.62646	0.18498	3.49537
0.62815	0.18365	3.51376
0.62984	0.18237	3.53205
0.63153	0.18114	3.55025
0.63322	0.17995	3.56836
0.63491	0.17881	3.58638
0.63660	0.17770	3.60431
0.63829	0.17664	3.62215
0.63998	0.17562	3.63992
0.64167	0.17463	3.65760
0.64336	0.17368	3.67520
0.64505	0.17277	3.69273
0.64674	0.17188	3.71018
0.64843	0.17104	3.72756
0.65012	0.17022	3.74486
0.65181	0.16944	3.76210
0.65350	0.16868	3.77926
0.65519	0.16796	3.79636
0.65688	0.16726	3.81339
0.65857	0.16659	3.83036
0.66026	0.16594	3.84727
0.66195	0.16532	3.86412
0.66364	0.16473	3.88090
0.66533	0.16416	3.89763
0.66702	0.16361	3.91429
0.66871	0.16308	3.93091
0.67040	0.16258	3.94746
0.67209	0.16210	3.96397
0.67378	0.16164	3.98042
0.67546	0.16120	3.99681
0.67715	0.16078	4.01316
0.67884	0.16037	4.02946
0.68053	0.15999	4.04571
0.68222	0.15962	4.06191
0.68391	0.15928	4.07806
0.68560	0.15895	4.09417
0.68729	0.15863	4.11023
0.68898	0.15833	4.12625
0.69067	0.15805	4.14222
0.69236	0.15778	4.15816
0.69405	0.15753	4.17405
0.69574	0.15729	4.18990
0.69743	0.15707	4.20570
0.69912	0.15686	4.22147
0.70081	0.15666	4.23720
0.70250	0.15648	4.25290
0.70419	0.15631	4.26855
0.70588	0.15615	4.28417
0.70757	0.15601	4.29975
0.70926	0.15587	4.31530
0.71095	0.15575	4.33081
0.71264	0.15564	4.34629
0.71433	0.15554	4.36173
0.71602	0.15545	4.37714
0.71771	0.15538	4.39252
0.71940	0.15531	4.40787
0.72109	0.15525	4.42318
0.72278	0.15520	4.43847
0.72447	0.15517	4.45372
0.72616	0.15514	4.46894
0.72785	0.15512	4.48414
0.72954	0.15511	4.49930
0.73122	0.15511	4.51444
0.73291	0.15512	4.52955
0.73460	0.15514	4.54463
0.73629	0.15517	4.55968
0.73798	0.15520	4.57471
0.73967	0.15524	4.58971
0.74136	0.15529	4.60468
0.74305	0.15535	4.61963
0.74474	0.15542	4.63455
0.74643	0.15549	4.64945
0.74812	0.15557	4.66433
0.74981	0.15566	4.67918
0.75150	0.15575	4.69401
0.75319	0.15586	4.70881
0.75488	0.15596	4.72359
0.75657	0.15608	4.73835
0.75826	0.15620	4.75308
0.75995	0.15633	4.76780
0.76164	0.15646	4.78249
0.76333	0.15661	4.79716
0.76502	0.15675	4.81181
0.76671	0.15691	4.82644
0.76840	0.15707	4.84105
0.77009	0.15723	4.85564
0.77178	0.15740	4.87020
0.77347	0.15758	4.88475
0.77516	0.15776	4.89928
0.77685	0.15795	4.91379
0.77854	0.15814	4.92828
0.78023	0.15834	4.94276
0.78192	0.15854	4.95721
0.78361	0.15875	4.97165
0.78530	0.15896	4.98607
0.78699	0.15918	5.00047
0.78867	0.15941	5.01485
0.79036	0.15963	5.02922
0.79205	0.15987	5.04357
0.79374	0.16010	5.05790
0.79543	0.16035	5.07221
0.79712	0.16059	5.08651
0.79881	0.16085	5.10080
0.80050	0.16110	5.11506
0.80219	0.16136	5.12932
0.80388	0.16163	5.14355
0.80557	0.16189	5.15777
0.80726	0.16217	5.17198
0.80895	0.16244	5.18617
0.81064	0.16272	5.20035
0.81233	0.16301	5.21451
0.81402	0.16330	5.22866
0.81571	0.16359	5.24279
0.81740	0.16389	5.25691
0.81909	0.16419	5.27101
0.82078	0.16449	5.28510
0.82247	0.16480	5.29918
0.82416	0.16511	5.31325
0.82585	0.16543	5.32730
0.82754	0.16575	5.34134
0.82923	0.16607	5.35536
0.83092	0.16639	5.36937
0.83261	0.16672	5.38337
0.83430	0.16706	5.39736
0.83599	0.16739	5.41133
0.83768	0.16773	5.42530
0.83937	0.16807	5.43925
0.84106	0.16842	5.45318
0.84275	0.16877	5.46711
0.84443	0.16912	5.48103
0.84612	0.16948	5.49493
0.84781	0.16984	5.50882
0.84950	0.17020	5.52270
0.85119	0.17056	5.53657
0.85288	0.17093	5.55043
0.85457	0.17130	5.56428
0.85626	0.17167	5.57811
0.85795	0.17205	5.59194
0.85964	0.17243	5.60575
0.86133	0.17281	5.61956
0.86302	0.17320	5.63335
0.86471	0.17359	5.64713
0.86640	0.17398	5.66091
0.86809	0.17437	5.67467
0.86978	0.17477	5.68842
0.87147	0.17517	5.70217
0.87316	0.17557	5.71590
0.87485	0.17597	5.72963
0.87654	0.17638	5.74334
0.87823	0.17679	5.75705
0.87992	0.17720	5.77074
0.88161	0.17762	5.78443
0.88330	0.17803	5.79811
0.88499	0.17845	5.81177
0.88668	0.17888	5.82543
0.88837	0.17930	5.83908
0.89006	0.17973	5.85272
0.89175	0.18016	5.86636
0.89344	0.18059	5.87998
0.89513	0.18103	5.89360
0.89682	0.18146	5.90720
0.89851	0.18190	5.92080
0.90020	0.18234	5.93439
0.90188	0.18279	5.94797
0.90357	0.18323	5.96155
0.90526	0.18368	5.97511
0.90695	0.18413	5.98867
0.90864	0.18459	6.00222
0.91033	0.18504	6.01576
0.91202	0.18550	6.02929
0.91371	0.18596	6.04282
0.91540	0.18642	6.05634
0.91709	0.18689	6.06985
0.91878	0.18735	6.08335
0.92047	0.18782	6.09685
0.92216	0.18829	6.11033
0.92385	0.18876	6.12381
0.92554	0.18924	6.13729
0.92723	0.18972	6.15075
0.92892	0.19019	6.16421
0.93061	0.19068	6.17767
0.93230	0.19116	6.19111
0.93399	0.19164	6.20455
0.93568	0.19213	6.21798
0.93737	0.19262	6.23140
0.93906	0.19311	6.24482
0.94075	0.19360	6.25823
0.94244	0.19410	6.27164
0.94413	0.19460	6.28503
0.94582	0.19510	6.29843
0.94751	0.19560	6.31181
0.94920	0.19610	6.32519
0.95089	0.19660	6.33856
0.95258	0.19711	6.35193
0.95427	0.19762	6.36528
0.95596	0.19813	6.37864
0.95764	0.19864	6.39198
0.95933	0.19916	6.40532
0.96102	0.19967	6.41866
0.96271	0.20019	6.43199
0.96440	0.20071	6.44531
0.96609	0.20123	6.45863
0.96778	0.20175	6.47194
0.96947	0.20228	6.48524
0.97116	0.20281	6.49854
0.97285	0.20334	6.51183
0.97454	0.20387	6.52512
0.97623	0.20440	6.53840
0.97792	0.20493	6.55168
0.97961	0.20547	6.56495
0.98130	0.20601	6.57822
0.98299	0.20654	6.59148
0.98468	0.20709	6.60473
0.98637	0.20763	6.61798
0.98806	0.20817	6.63122
0.98975	0.20872	6.64446
0.99144	0.20927	6.65769
0.99313	0.20982	6.67092
0.99482	0.21037	6.68414
0.99651	0.21092	6.69736
0.99820	0.21147	6.71057
0.99989	0.21203	6.72378
1.00158	0.21259	6.73698
1.00327	0.21315	6.75018
1.00496	0.21371	6.76337
1.00665	0.21427	6.77656
1.00834	0.21484	6.78974
1.01003	0.21540	6.80292
1.01172	0.21597	6.81609
1.01341	0.21654	6.82926
1.01509	0.21711	6.84243
1.01678	0.21768	6.85558
1.01847	0.21826	6.86874
1.02016	0.21883	6.88189
1.02185	0.21941	6.89503
1.02354	0.21999	6.90817
1.02523	0.22057	6.92131
1.02692	0.22115	6.93444
1.02861	0.22173	6.94756
1.03030	0.22232	6.96069
1.03199	0.22290	6.97380
1.03368	0.22349	6.98692
1.03537	0.22408	7.00003
1.03706	0.22467	7.01313
1.03875	0.22527	7.02623
1.04044	0.22586	7.03933
1.04213	0.22646	7.05242
1.04382	0.22705	7.06551
1.04551	0.22765	7.07859
1.04720	0.22825	7.09167
