Refractive index of gold at +96K
lambda [um]	n	k
0.55043	0.35891	2.50260
0.55212	0.34988	2.53018
0.55381	0.34132	2.55738
0.55550	0.33319	2.58421
0.55719	0.32548	2.61069
0.55888	0.31816	2.63683
0.56057	0.31119	2.66263
0.56225	0.30457	2.68811
0.56394	0.29826	2.71328
0.56563	0.29225	2.73815
0.56732	0.28652	2.76273
0.56901	0.28105	2.78702
0.57070	0.27583	2.81104
0.57239	0.27085	2.83479
0.57408	0.26609	2.85829
0.57577	0.26154	2.88154
0.57746	0.25719	2.90455
0.57915	0.25302	2.92733
0.58084	0.24904	2.94988
0.58253	0.24522	2.97222
0.58422	0.24156	2.99434
0.58591	0.23805	3.01626
0.58760	0.23469	3.03798
0.58929	0.23146	3.05952
0.59098	0.22837	3.08086
0.59267	0.22539	3.10203
0.59436	0.22254	3.12302
0.59605	0.21980	3.14384
0.59774	0.21716	3.16450
0.59943	0.21463	3.18500
0.60112	0.21220	3.20535
0.60281	0.20986	3.22554
0.60450	0.20761	3.24559
0.60619	0.20544	3.26550
0.60788	0.20336	3.28527
0.60957	0.20136	3.30490
0.61126	0.19943	3.32441
0.61295	0.19757	3.34379
0.61464	0.19578	3.36305
0.61633	0.19406	3.38219
0.61801	0.19240	3.40121
0.61970	0.19080	3.42012
0.62139	0.18926	3.43892
0.62308	0.18778	3.45762
0.62477	0.18635	3.47620
0.62646	0.18497	3.49469
0.62815	0.18365	3.51308
0.62984	0.18237	3.53137
0.63153	0.18114	3.54957
0.63322	0.17995	3.56767
0.63491	0.17881	3.58569
0.63660	0.17771	3.60362
0.63829	0.17665	3.62146
0.63998	0.17563	3.63923
0.64167	0.17464	3.65691
0.64336	0.17369	3.67451
0.64505	0.17278	3.69203
0.64674	0.17190	3.70948
0.64843	0.17106	3.72685
0.65012	0.17024	3.74416
0.65181	0.16946	3.76139
0.65350	0.16871	3.77855
0.65519	0.16798	3.79565
0.65688	0.16729	3.81268
0.65857	0.16662	3.82965
0.66026	0.16597	3.84655
0.66195	0.16535	3.86339
0.66364	0.16476	3.88018
0.66533	0.16419	3.89690
0.66702	0.16365	3.91356
0.66871	0.16312	3.93017
0.67040	0.16262	3.94673
0.67209	0.16214	3.96323
0.67378	0.16168	3.97967
0.67546	0.16124	3.99607
0.67715	0.16082	4.01241
0.67884	0.16042	4.02871
0.68053	0.16003	4.04495
0.68222	0.15967	4.06115
0.68391	0.15932	4.07730
0.68560	0.15899	4.09340
0.68729	0.15868	4.10946
0.68898	0.15838	4.12548
0.69067	0.15810	4.14145
0.69236	0.15783	4.15738
0.69405	0.15758	4.17326
0.69574	0.15734	4.18911
0.69743	0.15712	4.20491
0.69912	0.15691	4.22068
0.70081	0.15671	4.23641
0.70250	0.15653	4.25209
0.70419	0.15636	4.26775
0.70588	0.15620	4.28336
0.70757	0.15606	4.29894
0.70926	0.15593	4.31448
0.71095	0.15580	4.32999
0.71264	0.15569	4.34546
0.71433	0.15560	4.36090
0.71602	0.15551	4.37631
0.71771	0.15543	4.39168
0.71940	0.15536	4.40702
0.72109	0.15531	4.42233
0.72278	0.15526	4.43761
0.72447	0.15522	4.45286
0.72616	0.15520	4.46808
0.72785	0.15518	4.48327
0.72954	0.15517	4.49843
0.73122	0.15517	4.51356
0.73291	0.15518	4.52867
0.73460	0.15520	4.54374
0.73629	0.15522	4.55879
0.73798	0.15526	4.57382
0.73967	0.15530	4.58881
0.74136	0.15535	4.60378
0.74305	0.15541	4.61873
0.74474	0.15548	4.63364
0.74643	0.15555	4.64854
0.74812	0.15563	4.66341
0.74981	0.15572	4.67826
0.75150	0.15581	4.69308
0.75319	0.15592	4.70788
0.75488	0.15602	4.72265
0.75657	0.15614	4.73741
0.75826	0.15626	4.75214
0.75995	0.15639	4.76685
0.76164	0.15653	4.78153
0.76333	0.15667	4.79620
0.76502	0.15682	4.81084
0.76671	0.15697	4.82547
0.76840	0.15713	4.84007
0.77009	0.15729	4.85466
0.77178	0.15746	4.86922
0.77347	0.15764	4.88376
0.77516	0.15782	4.89829
0.77685	0.15801	4.91279
0.77854	0.15820	4.92728
0.78023	0.15840	4.94175
0.78192	0.15861	4.95620
0.78361	0.15881	4.97063
0.78530	0.15903	4.98504
0.78699	0.15925	4.99944
0.78867	0.15947	5.01381
0.79036	0.15970	5.02818
0.79205	0.15993	5.04252
0.79374	0.16017	5.05685
0.79543	0.16041	5.07116
0.79712	0.16066	5.08545
0.79881	0.16091	5.09973
0.80050	0.16117	5.11399
0.80219	0.16143	5.12824
0.80388	0.16169	5.14247
0.80557	0.16196	5.15669
0.80726	0.16223	5.17089
0.80895	0.16251	5.18507
0.81064	0.16279	5.19925
0.81233	0.16307	5.21340
0.81402	0.16336	5.22754
0.81571	0.16366	5.24167
0.81740	0.16395	5.25579
0.81909	0.16425	5.26989
0.82078	0.16456	5.28397
0.82247	0.16487	5.29804
0.82416	0.16518	5.31210
0.82585	0.16549	5.32615
0.82754	0.16581	5.34018
0.82923	0.16613	5.35420
0.83092	0.16646	5.36821
0.83261	0.16679	5.38220
0.83430	0.16712	5.39618
0.83599	0.16746	5.41015
0.83768	0.16780	5.42411
0.83937	0.16814	5.43806
0.84106	0.16849	5.45199
0.84275	0.16884	5.46591
0.84443	0.16919	5.47982
0.84612	0.16954	5.49372
0.84781	0.16990	5.50760
0.84950	0.17026	5.52148
0.85119	0.17063	5.53534
0.85288	0.17100	5.54919
0.85457	0.17137	5.56304
0.85626	0.17174	5.57687
0.85795	0.17212	5.59069
0.85964	0.17250	5.60450
0.86133	0.17288	5.61830
0.86302	0.17327	5.63209
0.86471	0.17365	5.64586
0.86640	0.17405	5.65963
0.86809	0.17444	5.67339
0.86978	0.17484	5.68714
0.87147	0.17523	5.70088
0.87316	0.17564	5.71460
0.87485	0.17604	5.72832
0.87654	0.17645	5.74203
0.87823	0.17686	5.75573
0.87992	0.17727	5.76942
0.88161	0.17769	5.78310
0.88330	0.17810	5.79678
0.88499	0.17852	5.81044
0.88668	0.17895	5.82409
0.88837	0.17937	5.83774
0.89006	0.17980	5.85137
0.89175	0.18023	5.86500
0.89344	0.18066	5.87862
0.89513	0.18110	5.89223
0.89682	0.18153	5.90583
0.89851	0.18197	5.91942
0.90020	0.18241	5.93301
0.90188	0.18286	5.94658
0.90357	0.18330	5.96015
0.90526	0.18375	5.97371
0.90695	0.18420	5.98726
0.90864	0.18466	6.00081
0.91033	0.18511	6.01434
0.91202	0.18557	6.02787
0.91371	0.18603	6.04139
0.91540	0.18649	6.05490
0.91709	0.18696	6.06841
0.91878	0.18742	6.08191
0.92047	0.18789	6.09540
0.92216	0.18836	6.10888
0.92385	0.18883	6.12235
0.92554	0.18931	6.13582
0.92723	0.18979	6.14928
0.92892	0.19027	6.16274
0.93061	0.19075	6.17618
0.93230	0.19123	6.18962
0.93399	0.19172	6.20306
0.93568	0.19220	6.21648
0.93737	0.19269	6.22990
0.93906	0.19318	6.24331
0.94075	0.19368	6.25672
0.94244	0.19417	6.27012
0.94413	0.19467	6.28351
0.94582	0.19517	6.29690
0.94751	0.19567	6.31027
0.94920	0.19617	6.32365
0.95089	0.19668	6.33701
0.95258	0.19718	6.35037
0.95427	0.19769	6.36373
0.95596	0.19820	6.37707
0.95764	0.19872	6.39042
0.95933	0.19923	6.40375
0.96102	0.19975	6.41708
0.96271	0.20026	6.43040
0.96440	0.20078	6.44372
0.96609	0.20131	6.45703
0.96778	0.20183	6.47034
0.96947	0.20235	6.48364
0.97116	0.20288	6.49693
0.97285	0.20341	6.51022
0.97454	0.20394	6.52350
0.97623	0.20447	6.53678
0.97792	0.20501	6.55005
0.97961	0.20554	6.56331
0.98130	0.20608	6.57657
0.98299	0.20662	6.58983
0.98468	0.20716	6.60307
0.98637	0.20770	6.61632
0.98806	0.20825	6.62956
0.98975	0.20879	6.64279
0.99144	0.20934	6.65602
0.99313	0.20989	6.66924
0.99482	0.21044	6.68246
0.99651	0.21100	6.69567
0.99820	0.21155	6.70887
0.99989	0.21211	6.72208
1.00158	0.21267	6.73527
1.00327	0.21323	6.74847
1.00496	0.21379	6.76165
1.00665	0.21435	6.77483
1.00834	0.21491	6.78801
1.01003	0.21548	6.80118
1.01172	0.21605	6.81435
1.01341	0.21662	6.82751
1.01509	0.21719	6.84067
1.01678	0.21776	6.85382
1.01847	0.21833	6.86697
1.02016	0.21891	6.88012
1.02185	0.21949	6.89326
1.02354	0.22007	6.90639
1.02523	0.22065	6.91952
1.02692	0.22123	6.93265
1.02861	0.22181	6.94577
1.03030	0.22240	6.95888
1.03199	0.22298	6.97200
1.03368	0.22357	6.98510
1.03537	0.22416	6.99821
1.03706	0.22475	7.01131
1.03875	0.22535	7.02440
1.04044	0.22594	7.03749
1.04213	0.22654	7.05058
1.04382	0.22713	7.06366
1.04551	0.22773	7.07674
1.04720	0.22833	7.08981
